Time	 AnchTen1	 FairTen1	 
(s)	 (N)       	 (N)       	 
0.0001	 744.894	 635.779	 
0.0002	 839.614	 635.724	 
0.0003	 920.606	 635.453	 
0.0004	 992.005	 634.743	 
0.0005	 1056.37	 633.384	 
0.0006	 1115.35	 631.199	 
0.0007	 1170.07	 627.979	 
0.0008	 1221.32	 623.291	 
0.0009	 1269.68	 616.107	 
0.001	 1315.6	 604.206	 
0.0011	 1359.42	 583.374	 
0.0012	 1401.42	 546.446	 
0.0013	 1441.86	 482.331	 
0.0014	 1480.99	 375.107	 
0.0015	 1519.12	 203.323	 
0.0016	 1556.65	 60.4395	 
0.0017	 1594.12	 449.704	 
0.0018	 1632.33	 1003.93	 
0.0019	 1672.39	 1768.05	 
0.002	 1715.84	 2791.83	 
0.00211	 1770.05	 4282.29	 
0.00221	 1828.18	 6030.63	 
0.00231	 1898.42	 8215.45	 
0.00241	 1985.25	 10898.2	 
0.00251	 2094.13	 14140.9	 
0.00261	 2231.62	 18005.9	 
0.00271	 2405.43	 22555.5	 
0.00281	 2624.48	 27851.6	 
0.00291	 2898.96	 33955.7	 
0.00301	 3240.33	 40927.4	 
0.00311	 3661.36	 48824.6	 
0.00321	 4176.09	 57703.5	 
0.00331	 4799.84	 67620.7	 
0.00341	 5549.14	 78633.8	 
0.00351	 6441.73	 90800	 
0.00361	 7496.49	 104173	 
0.00371	 8733.4	 118803	 
0.00381	 10173.5	 134736	 
0.00391	 11838.8	 152028	 
0.00401	 13752.2	 170738	 
0.00411	 15937.5	 190933	 
0.00421	 18419.3	 212674	 
0.00431	 21223	 236002	 
0.00441	 24374.6	 260952	 
0.00451	 27901.1	 287570	 
0.00461	 31829.8	 315936	 
0.00471	 36188.5	 346159	 
0.00481	 41005.7	 378346	 
0.00491	 46310.3	 412561	 
0.00501	 52131.7	 448801	 
0.00511	 58500.1	 487042	 
0.00521	 65446.1	 527347	 
0.00531	 73000.6	 569921	 
0.00541	 81194.5	 615037	 
0.00551	 90058.7	 662909	 
0.00561	 99625	 713592	 
0.00571	 109926	 766917	 
0.00581	 120996	 822589	 
0.00591	 132869	 880638	 
0.00601	 145578	 941688	 
0.00611	 159158	 1.00659e+06	 
0.00621	 173639	 1.07592e+06	 
0.00631	 189056	 1.14968e+06	 
0.00641	 205446	 1.22725e+06	 
0.00651	 222849	 1.30754e+06	 
0.00661	 241305	 1.3896e+06	 
0.00671	 260855	 1.47477e+06	 
0.00681	 281534	 1.56628e+06	 
0.00691	 303373	 1.66639e+06	 
0.00701	 326405	 1.77521e+06	 
0.00711	 350670	 1.89087e+06	 
0.00721	 376221	 2.01033e+06	 
0.00731	 403118	 2.13022e+06	 
0.00741	 431419	 2.24789e+06	 
0.00751	 461170	 2.37044e+06	 
0.00761	 492398	 2.5119e+06	 
0.00771	 525116	 2.67655e+06	 
0.00781	 559356	 2.85912e+06	 
0.00791	 595183	 3.05014e+06	 
0.00801	 632702	 3.23999e+06	 
0.00811	 672028	 3.42099e+06	 
0.00821	 713259	 3.58795e+06	 
0.00831	 756444	 3.7484e+06	 
0.00841	 801559	 3.97467e+06	 
0.00851	 848543	 4.27892e+06	 
0.00861	 897402	 4.62321e+06	 
0.00871	 948283	 4.96889e+06	 
0.00881	 1.00145e+06	 5.2897e+06	 
0.00891	 1.05719e+06	 5.57194e+06	 
0.00901	 1.1157e+06	 5.81117e+06	 
0.00911	 1.17702e+06	 6.00864e+06	 
0.00921	 1.24097e+06	 6.24445e+06	 
0.00931	 1.30723e+06	 6.9097e+06	 
0.00941	 1.37559e+06	 7.70733e+06	 
0.00951	 1.44637e+06	 8.44003e+06	 
0.00961	 1.52036e+06	 9.04229e+06	 
0.00971	 1.59842e+06	 9.50776e+06	 
0.00981	 1.68105e+06	 9.85382e+06	 
0.00991	 1.76826e+06	 1.01046e+07	 
0.01001	 1.85947e+06	 1.02832e+07	 
0.01011	 1.95374e+06	 1.04093e+07	 
0.01021	 2.04982e+06	 1.04982e+07	 
0.01031	 2.14643e+06	 1.05611e+07	 
0.01041	 2.24228e+06	 1.06063e+07	 
0.01051	 2.33624e+06	 1.06396e+07	 
0.01061	 2.42735e+06	 1.0665e+07	 
0.01071	 2.51487e+06	 1.06853e+07	 
0.01081	 2.59824e+06	 1.07024e+07	 
0.01091	 2.67709e+06	 1.07175e+07	 
0.01101	 2.75121e+06	 1.07314e+07	 
0.01111	 2.82054e+06	 1.07446e+07	 
0.01121	 2.8851e+06	 1.07575e+07	 
0.01131	 2.945e+06	 1.07703e+07	 
0.01141	 3.00041e+06	 1.0783e+07	 
0.01151	 3.05154e+06	 1.07958e+07	 
0.01161	 3.09863e+06	 1.08087e+07	 
0.01171	 3.14193e+06	 1.08216e+07	 
0.01181	 3.18169e+06	 1.08345e+07	 
0.01191	 3.21818e+06	 1.08474e+07	 
0.01201	 3.25163e+06	 1.08603e+07	 
0.01211	 3.28229e+06	 1.08732e+07	 
0.01221	 3.31039e+06	 1.08859e+07	 
0.01231	 3.33613e+06	 1.08985e+07	 
0.01241	 3.35972e+06	 1.0911e+07	 
0.01251	 3.38134e+06	 1.09233e+07	 
0.01261	 3.40117e+06	 1.09353e+07	 
0.01271	 3.41936e+06	 1.09472e+07	 
0.01281	 3.43606e+06	 1.09588e+07	 
0.01291	 3.4514e+06	 1.09701e+07	 
0.01301	 3.4655e+06	 1.09812e+07	 
0.01311	 3.47847e+06	 1.09919e+07	 
0.01321	 3.49041e+06	 1.10024e+07	 
0.01331	 3.50142e+06	 1.10125e+07	 
0.01341	 3.51157e+06	 1.10223e+07	 
0.01351	 3.52094e+06	 1.10318e+07	 
0.01361	 3.5296e+06	 1.10409e+07	 
0.01371	 3.53762e+06	 1.10497e+07	 
0.01381	 3.54504e+06	 1.10582e+07	 
0.01391	 3.55192e+06	 1.10663e+07	 
0.01401	 3.55831e+06	 1.10741e+07	 
0.01411	 3.56424e+06	 1.10815e+07	 
0.01421	 3.56975e+06	 1.10886e+07	 
0.01431	 3.57488e+06	 1.10954e+07	 
0.01441	 3.57966e+06	 1.11018e+07	 
0.01451	 3.58412e+06	 1.11078e+07	 
0.01461	 3.58828e+06	 1.11135e+07	 
0.01471	 3.59216e+06	 1.11189e+07	 
0.01481	 3.59578e+06	 1.1124e+07	 
0.01491	 3.59917e+06	 1.11287e+07	 
0.01501	 3.60234e+06	 1.1133e+07	 
0.01511	 3.60531e+06	 1.11371e+07	 
0.01521	 3.60808e+06	 1.11408e+07	 
0.01531	 3.61068e+06	 1.11442e+07	 
0.01541	 3.61311e+06	 1.11473e+07	 
0.01551	 3.61539e+06	 1.115e+07	 
0.01561	 3.61752e+06	 1.11525e+07	 
0.01571	 3.61951e+06	 1.11546e+07	 
0.01581	 3.62138e+06	 1.11564e+07	 
0.01591	 3.62312e+06	 1.11579e+07	 
0.01601	 3.62474e+06	 1.11591e+07	 
0.01611	 3.62626e+06	 1.116e+07	 
0.01621	 3.62767e+06	 1.11605e+07	 
0.01631	 3.62898e+06	 1.11608e+07	 
0.01641	 3.6302e+06	 1.11608e+07	 
0.01651	 3.63132e+06	 1.11604e+07	 
0.01661	 3.63236e+06	 1.11598e+07	 
0.01671	 3.63332e+06	 1.11589e+07	 
0.01681	 3.63419e+06	 1.11576e+07	 
0.01691	 3.63498e+06	 1.11561e+07	 
0.01701	 3.6357e+06	 1.11543e+07	 
0.01711	 3.63635e+06	 1.11521e+07	 
0.01721	 3.63693e+06	 1.11497e+07	 
0.01731	 3.63743e+06	 1.1147e+07	 
0.01741	 3.63787e+06	 1.11439e+07	 
0.0175	 3.63821e+06	 1.1141e+07	 
0.0176	 3.63854e+06	 1.30434e+07	 
0.0177	 3.63956e+06	 1.46295e+07	 
0.0178	 3.6443e+06	 1.54704e+07	 
0.0179	 3.65684e+06	 1.58798e+07	 
0.018	 3.68015e+06	 1.60481e+07	 
0.0181	 3.71526e+06	 1.60891e+07	 
0.0182	 3.76138e+06	 1.60688e+07	 
0.0183	 3.81651e+06	 1.6024e+07	 
0.0184	 3.87809e+06	 1.59742e+07	 
0.0185	 3.94349e+06	 1.59284e+07	 
0.0186	 4.01031e+06	 1.58903e+07	 
0.0187	 4.07657e+06	 1.58605e+07	 
0.0188	 4.14077e+06	 1.58382e+07	 
0.0189	 4.20184e+06	 1.58222e+07	 
0.019	 4.25909e+06	 1.58112e+07	 
0.0191	 4.31213e+06	 1.58039e+07	 
0.0192	 4.36082e+06	 1.57994e+07	 
0.0193	 4.40519e+06	 1.57968e+07	 
0.0194	 4.44539e+06	 1.57956e+07	 
0.0195	 4.48164e+06	 1.57952e+07	 
0.0196	 4.5142e+06	 1.57952e+07	 
0.0197	 4.54338e+06	 1.57955e+07	 
0.0198	 4.56946e+06	 1.57957e+07	 
0.0199	 4.59273e+06	 1.57957e+07	 
0.02	 4.61346e+06	 1.57955e+07	 
0.0201	 4.63191e+06	 1.57949e+07	 
0.0202	 4.64831e+06	 1.57938e+07	 
0.0203	 4.66288e+06	 1.57922e+07	 
0.0204	 4.67581e+06	 1.57901e+07	 
0.0205	 4.68727e+06	 1.57875e+07	 
0.0206	 4.69743e+06	 1.57842e+07	 
0.0207	 4.70641e+06	 1.57804e+07	 
0.0208	 4.71436e+06	 1.5776e+07	 
0.0209	 4.72136e+06	 1.5771e+07	 
0.021	 4.7278e+06	 1.59096e+07	 
0.0211	 4.74126e+06	 1.6467e+07	 
0.0212	 4.77663e+06	 1.71639e+07	 
0.0213	 4.84165e+06	 1.78305e+07	 
0.0214	 4.93501e+06	 1.83923e+07	 
0.0215	 5.04997e+06	 1.88287e+07	 
0.0216	 5.17798e+06	 1.91466e+07	 
0.0217	 5.31096e+06	 1.93651e+07	 
0.0218	 5.44241e+06	 1.95066e+07	 
0.0219	 5.56769e+06	 1.95917e+07	 
0.022	 5.68386e+06	 1.96379e+07	 
0.0221	 5.78941e+06	 1.96588e+07	 
0.0222	 5.88383e+06	 1.96641e+07	 
0.0223	 5.96732e+06	 1.96609e+07	 
0.0224	 6.04051e+06	 1.96536e+07	 
0.0225	 6.10428e+06	 1.9645e+07	 
0.0226	 6.15959e+06	 1.96367e+07	 
0.0227	 6.20743e+06	 1.96295e+07	 
0.0228	 6.24875e+06	 1.96237e+07	 
0.0229	 6.2844e+06	 1.96193e+07	 
0.023	 6.31517e+06	 1.96162e+07	 
0.0231	 6.34175e+06	 1.96139e+07	 
0.0232	 6.36472e+06	 1.96123e+07	 
0.0233	 6.3846e+06	 1.9611e+07	 
0.0234	 6.40184e+06	 1.96099e+07	 
0.0235	 6.4168e+06	 1.96087e+07	 
0.0236	 6.43137e+06	 1.96088e+07	 
0.0237	 6.49913e+06	 1.967e+07	 
0.0238	 6.6684e+06	 1.98618e+07	 
0.0239	 6.91959e+06	 2.01763e+07	 
0.024	 7.2149e+06	 2.05715e+07	 
0.0241	 7.52056e+06	 2.09993e+07	 
0.0242	 7.81296e+06	 2.14195e+07	 
0.0243	 8.07847e+06	 2.18043e+07	 
0.0244	 8.31111e+06	 2.21383e+07	 
0.0245	 8.50998e+06	 2.24158e+07	 
0.0246	 8.67718e+06	 2.26382e+07	 
0.0247	 8.81628e+06	 2.28113e+07	 
0.0248	 8.93136e+06	 2.29426e+07	 
0.0249	 9.02641e+06	 2.30405e+07	 
0.025	 9.10507e+06	 2.31127e+07	 
0.0251	 9.17047e+06	 2.3166e+07	 
0.0252	 9.35922e+06	 2.32058e+07	 
0.0253	 1.00762e+07	 2.32464e+07	 
0.0254	 1.0996e+07	 2.33201e+07	 
0.0255	 1.18998e+07	 2.34561e+07	 
0.0256	 1.26926e+07	 2.36681e+07	 
0.0257	 1.33475e+07	 2.39534e+07	 
0.0258	 1.67387e+07	 2.42976e+07	 
0.0259	 2.13417e+07	 2.46822e+07	 
0.026	 2.49976e+07	 2.5095e+07	 
0.0261	 2.78919e+07	 2.55368e+07	 
0.0262	 3.01886e+07	 2.60199e+07	 
0.0263	 3.20257e+07	 2.65618e+07	 
0.0264	 3.35148e+07	 2.71796e+07	 
0.0265	 3.47446e+07	 2.78854e+07	 
0.0266	 3.57836e+07	 2.86844e+07	 
0.0267	 3.66835e+07	 2.95743e+07	 
0.0268	 3.7483e+07	 3.05462e+07	 
0.0269	 3.82102e+07	 3.15863e+07	 
0.027	 3.88852e+07	 3.26775e+07	 
0.0271	 3.95226e+07	 3.38016e+07	 
0.0272	 4.01323e+07	 3.494e+07	 
0.0273	 4.07215e+07	 3.60758e+07	 
0.0274	 4.12951e+07	 3.71941e+07	 
0.0275	 4.18566e+07	 3.82826e+07	 
0.0276	 4.24082e+07	 3.93317e+07	 
0.0277	 4.29515e+07	 4.03348e+07	 
0.0278	 4.34878e+07	 4.12881e+07	 
0.0279	 4.40177e+07	 4.21896e+07	 
0.028	 4.45417e+07	 4.30397e+07	 
0.0281	 4.50602e+07	 4.38401e+07	 
0.0282	 4.55734e+07	 4.45936e+07	 
0.0283	 4.60815e+07	 4.53038e+07	 
0.0284	 4.65844e+07	 4.59745e+07	 
0.0285	 4.70824e+07	 4.66098e+07	 
0.0286	 4.75754e+07	 4.72138e+07	 
0.0287	 4.80635e+07	 4.77902e+07	 
0.0288	 4.85465e+07	 4.83426e+07	 
0.0289	 4.90246e+07	 4.88741e+07	 
0.029	 4.94978e+07	 4.93874e+07	 
0.0291	 4.99659e+07	 4.9885e+07	 
0.0292	 5.0429e+07	 5.03689e+07	 
0.0293	 5.08872e+07	 5.08409e+07	 
0.0294	 5.13403e+07	 5.13024e+07	 
0.0295	 5.17884e+07	 5.17546e+07	 
0.0296	 5.22315e+07	 5.21984e+07	 
0.0297	 5.26696e+07	 5.26347e+07	 
0.0298	 5.31027e+07	 5.30641e+07	 
0.0299	 5.35308e+07	 5.3487e+07	 
0.03	 5.39539e+07	 5.3904e+07	 
0.0301	 5.4372e+07	 5.43152e+07	 
0.0302	 5.47851e+07	 5.4721e+07	 
0.0303	 5.51933e+07	 5.51216e+07	 
0.0304	 5.55965e+07	 5.55171e+07	 
0.0305	 5.59949e+07	 5.59077e+07	 
0.0306	 5.63883e+07	 5.62934e+07	 
0.0307	 5.67768e+07	 5.66743e+07	 
0.0308	 5.71605e+07	 5.70505e+07	 
0.0309	 5.75393e+07	 5.74221e+07	 
0.031	 5.79133e+07	 5.77891e+07	 
0.0311	 5.82825e+07	 5.81515e+07	 
0.0312	 5.8647e+07	 5.85094e+07	 
0.0313	 5.90067e+07	 5.88628e+07	 
0.0314	 5.93617e+07	 5.92117e+07	 
0.0315	 5.97121e+07	 5.95563e+07	 
0.0316	 6.00578e+07	 5.98964e+07	 
0.0317	 6.03989e+07	 6.02321e+07	 
0.0318	 6.07355e+07	 6.05634e+07	 
0.0319	 6.10674e+07	 6.08905e+07	 
0.032	 6.13949e+07	 6.12132e+07	 
0.0321	 6.17179e+07	 6.15317e+07	 
0.0322	 6.20364e+07	 6.18459e+07	 
0.0323	 6.23506e+07	 6.21558e+07	 
0.0324	 6.26603e+07	 6.24616e+07	 
0.0325	 6.29657e+07	 6.27632e+07	 
0.0326	 6.32668e+07	 6.30607e+07	 
0.0327	 6.35636e+07	 6.3354e+07	 
0.0328	 6.38562e+07	 6.36432e+07	 
0.0329	 6.41445e+07	 6.39284e+07	 
0.033	 6.44287e+07	 6.42095e+07	 
0.0331	 6.47087e+07	 6.44866e+07	 
0.0332	 6.49846e+07	 6.47597e+07	 
0.0333	 6.52564e+07	 6.50288e+07	 
0.0334	 6.55242e+07	 6.5294e+07	 
0.0335	 6.57879e+07	 6.55553e+07	 
0.0336	 6.60477e+07	 6.58127e+07	 
0.0337	 6.63035e+07	 6.60663e+07	 
0.0338	 6.65554e+07	 6.6316e+07	 
0.0339	 6.68034e+07	 6.6562e+07	 
0.034	 6.70476e+07	 6.68041e+07	 
0.0341	 6.72879e+07	 6.70426e+07	 
0.0342	 6.75244e+07	 6.72773e+07	 
0.0343	 6.77571e+07	 6.75084e+07	 
0.0344	 6.79861e+07	 6.77357e+07	 
0.0345	 6.82113e+07	 6.79595e+07	 
0.0346	 6.84329e+07	 6.81797e+07	 
0.0347	 6.86508e+07	 6.83963e+07	 
0.0348	 6.88651e+07	 6.86094e+07	 
0.0349	 6.90758e+07	 6.88189e+07	 
0.035	 6.92829e+07	 6.9025e+07	 
0.0351	 6.94865e+07	 6.92276e+07	 
0.0352	 6.96865e+07	 6.94267e+07	 
0.0353	 6.98831e+07	 6.96225e+07	 
0.0354	 7.00762e+07	 6.98149e+07	 
0.0355	 7.02659e+07	 7.00039e+07	 
0.0356	 7.04522e+07	 7.01896e+07	 
0.0357	 7.0635e+07	 7.03721e+07	 
0.0358	 7.08146e+07	 7.05512e+07	 
0.0359	 7.09908e+07	 7.0727e+07	 
0.036	 7.11638e+07	 7.08997e+07	 
0.0361	 7.13334e+07	 7.10691e+07	 
0.0362	 7.14999e+07	 7.12353e+07	 
0.0363	 7.16631e+07	 7.13984e+07	 
0.0364	 7.18231e+07	 7.15583e+07	 
0.0365	 7.198e+07	 7.17151e+07	 
0.0366	 7.21338e+07	 7.18688e+07	 
0.0367	 7.22844e+07	 7.20193e+07	 
0.0368	 7.24319e+07	 7.21669e+07	 
0.0369	 7.25764e+07	 7.23113e+07	 
0.037	 7.27179e+07	 7.24528e+07	 
0.0371	 7.28563e+07	 7.25912e+07	 
0.0372	 7.29917e+07	 7.27266e+07	 
0.0373	 7.31242e+07	 7.28591e+07	 
0.0374	 7.32537e+07	 7.29885e+07	 
0.0375	 7.33802e+07	 7.31151e+07	 
0.0376	 7.35039e+07	 7.32387e+07	 
0.0377	 7.36246e+07	 7.33594e+07	 
0.0378	 7.37425e+07	 7.34772e+07	 
0.0379	 7.38575e+07	 7.35921e+07	 
0.038	 7.39696e+07	 7.37041e+07	 
0.0381	 7.40789e+07	 7.38133e+07	 
0.0382	 7.41853e+07	 7.39196e+07	 
0.0383	 7.4289e+07	 7.40231e+07	 
0.0384	 7.43899e+07	 7.41238e+07	 
0.0385	 7.44879e+07	 7.42217e+07	 
0.0386	 7.45832e+07	 7.43168e+07	 
0.0387	 7.46757e+07	 7.44092e+07	 
0.0388	 7.47655e+07	 7.44987e+07	 
0.0389	 7.48525e+07	 7.45856e+07	 
0.039	 7.49368e+07	 7.46696e+07	 
0.0391	 7.50183e+07	 7.4751e+07	 
0.0392	 7.50972e+07	 7.48296e+07	 
0.0393	 7.51733e+07	 7.49056e+07	 
0.0394	 7.52467e+07	 7.49788e+07	 
0.0395	 7.53175e+07	 7.50493e+07	 
0.0396	 7.53855e+07	 7.51172e+07	 
0.0397	 7.54509e+07	 7.51824e+07	 
0.0398	 7.55135e+07	 7.52449e+07	 
0.0399	 7.55736e+07	 7.53048e+07	 
0.04	 7.56309e+07	 7.5362e+07	 
0.0401	 7.56856e+07	 7.54166e+07	 
0.0402	 7.57377e+07	 7.54686e+07	 
0.0403	 7.57871e+07	 7.55179e+07	 
0.0404	 7.58339e+07	 7.55646e+07	 
0.0405	 7.58781e+07	 7.56086e+07	 
0.0406	 7.59196e+07	 7.56501e+07	 
0.0407	 7.59585e+07	 7.5689e+07	 
0.0408	 7.59948e+07	 7.57252e+07	 
0.0409	 7.60285e+07	 7.57588e+07	 
0.041	 7.60596e+07	 7.57899e+07	 
0.0411	 7.60881e+07	 7.58183e+07	 
0.0412	 7.6114e+07	 7.58442e+07	 
0.0413	 7.61373e+07	 7.58674e+07	 
0.0414	 7.6158e+07	 7.58881e+07	 
0.0415	 7.61761e+07	 7.59062e+07	 
0.0416	 7.61916e+07	 7.59217e+07	 
0.0417	 7.62046e+07	 7.59346e+07	 
0.0418	 7.62149e+07	 7.59449e+07	 
0.0419	 7.62227e+07	 7.59526e+07	 
0.042	 7.62279e+07	 7.59577e+07	 
0.0421	 7.62305e+07	 7.59602e+07	 
0.04221	 7.62304e+07	 7.596e+07	 
0.04231	 7.62276e+07	 7.59571e+07	 
0.04241	 7.62222e+07	 7.59516e+07	 
0.04251	 7.62142e+07	 7.59434e+07	 
0.04261	 7.62036e+07	 7.59326e+07	 
0.04271	 7.61904e+07	 7.59193e+07	 
0.04281	 7.61747e+07	 7.59032e+07	 
0.04291	 7.61563e+07	 7.58846e+07	 
0.04301	 7.61353e+07	 7.58634e+07	 
0.04311	 7.61118e+07	 7.58395e+07	 
0.04321	 7.60856e+07	 7.5813e+07	 
0.04331	 7.60569e+07	 7.5784e+07	 
0.04341	 7.60255e+07	 7.57523e+07	 
0.04351	 7.59915e+07	 7.57181e+07	 
0.04361	 7.5955e+07	 7.56813e+07	 
0.04371	 7.59158e+07	 7.56419e+07	 
0.04381	 7.5874e+07	 7.56e+07	 
0.04391	 7.58297e+07	 7.55555e+07	 
0.04401	 7.57827e+07	 7.55085e+07	 
0.04411	 7.57332e+07	 7.54591e+07	 
0.04421	 7.56811e+07	 7.54071e+07	 
0.04431	 7.56264e+07	 7.53526e+07	 
0.04441	 7.55692e+07	 7.52957e+07	 
0.04451	 7.55095e+07	 7.52363e+07	 
0.04461	 7.54472e+07	 7.51746e+07	 
0.04471	 7.53823e+07	 7.51104e+07	 
0.04481	 7.5315e+07	 7.50439e+07	 
0.04491	 7.52452e+07	 7.4975e+07	 
0.04501	 7.5173e+07	 7.49038e+07	 
0.04511	 7.50983e+07	 7.48304e+07	 
0.04521	 7.50211e+07	 7.47547e+07	 
0.04531	 7.49416e+07	 7.46767e+07	 
0.04541	 7.48597e+07	 7.45966e+07	 
0.04551	 7.47755e+07	 7.45144e+07	 
0.04561	 7.4689e+07	 7.44301e+07	 
0.04571	 7.46002e+07	 7.43437e+07	 
0.04581	 7.45092e+07	 7.42553e+07	 
0.04591	 7.4416e+07	 7.41649e+07	 
0.04601	 7.43207e+07	 7.40727e+07	 
0.04611	 7.42233e+07	 7.39785e+07	 
0.04621	 7.41238e+07	 7.38826e+07	 
0.04631	 7.40222e+07	 7.37848e+07	 
0.04641	 7.39188e+07	 7.36854e+07	 
0.04651	 7.38134e+07	 7.35844e+07	 
0.04661	 7.37062e+07	 7.34817e+07	 
0.04671	 7.35972e+07	 7.33776e+07	 
0.04681	 7.34865e+07	 7.32719e+07	 
0.04691	 7.33742e+07	 7.31649e+07	 
0.04701	 7.32602e+07	 7.30566e+07	 
0.04711	 7.31447e+07	 7.2947e+07	 
0.04721	 7.30278e+07	 7.28362e+07	 
0.04731	 7.29095e+07	 7.27244e+07	 
0.04741	 7.27899e+07	 7.26115e+07	 
0.04751	 7.26691e+07	 7.24976e+07	 
0.04761	 7.25472e+07	 7.23829e+07	 
0.04771	 7.24242e+07	 7.22674e+07	 
0.04781	 7.23003e+07	 7.21511e+07	 
0.04791	 7.21754e+07	 7.20342e+07	 
0.04801	 7.20498e+07	 7.19167e+07	 
0.04811	 7.19235e+07	 7.17988e+07	 
0.04821	 7.17965e+07	 7.16804e+07	 
0.04831	 7.16691e+07	 7.15618e+07	 
0.04841	 7.15412e+07	 7.14429e+07	 
0.04851	 7.1413e+07	 7.13239e+07	 
0.04861	 7.12846e+07	 7.12048e+07	 
0.04871	 7.1156e+07	 7.10857e+07	 
0.04881	 7.10274e+07	 7.09667e+07	 
0.04891	 7.08989e+07	 7.08478e+07	 
0.04901	 7.07705e+07	 7.07293e+07	 
0.04911	 7.06424e+07	 7.0611e+07	 
0.04921	 7.05147e+07	 7.04932e+07	 
0.04931	 7.03874e+07	 7.03759e+07	 
0.04941	 7.02607e+07	 7.02591e+07	 
0.04951	 7.01346e+07	 7.0143e+07	 
0.04961	 7.00093e+07	 7.00276e+07	 
0.04971	 6.98848e+07	 6.9913e+07	 
0.04981	 6.97613e+07	 6.97993e+07	 
0.04991	 6.96387e+07	 6.96865e+07	 
0.05001	 6.95173e+07	 6.95747e+07	 
0.05011	 6.93971e+07	 6.9464e+07	 
0.05021	 6.92782e+07	 6.93544e+07	 
0.05031	 6.91606e+07	 6.9246e+07	 
0.05041	 6.90445e+07	 6.91388e+07	 
0.05051	 6.89299e+07	 6.9033e+07	 
0.05061	 6.88168e+07	 6.89285e+07	 
0.05071	 6.87055e+07	 6.88255e+07	 
0.05081	 6.85959e+07	 6.8724e+07	 
0.05091	 6.84881e+07	 6.86239e+07	 
0.05101	 6.83821e+07	 6.85255e+07	 
0.05111	 6.82781e+07	 6.84286e+07	 
0.05121	 6.8176e+07	 6.83335e+07	 
0.05131	 6.80759e+07	 6.824e+07	 
0.05141	 6.7978e+07	 6.81483e+07	 
0.05151	 6.78821e+07	 6.80584e+07	 
0.05161	 6.77884e+07	 6.79703e+07	 
0.05171	 6.76969e+07	 6.7884e+07	 
0.05181	 6.76076e+07	 6.77996e+07	 
0.05191	 6.75205e+07	 6.77172e+07	 
0.05201	 6.74357e+07	 6.76366e+07	 
0.05211	 6.73533e+07	 6.75581e+07	 
0.05221	 6.72731e+07	 6.74815e+07	 
0.05231	 6.71953e+07	 6.74069e+07	 
0.05241	 6.71199e+07	 6.73344e+07	 
0.05251	 6.70468e+07	 6.72638e+07	 
0.05261	 6.6976e+07	 6.71954e+07	 
0.05271	 6.69077e+07	 6.7129e+07	 
0.05281	 6.68417e+07	 6.70647e+07	 
0.05291	 6.67781e+07	 6.70025e+07	 
0.05301	 6.67169e+07	 6.69424e+07	 
0.05311	 6.6658e+07	 6.68844e+07	 
0.05321	 6.66015e+07	 6.68285e+07	 
0.05331	 6.65474e+07	 6.67747e+07	 
0.05341	 6.64956e+07	 6.6723e+07	 
0.05351	 6.64461e+07	 6.66735e+07	 
0.05361	 6.63989e+07	 6.6626e+07	 
0.05371	 6.63541e+07	 6.65807e+07	 
0.05381	 6.63115e+07	 6.65376e+07	 
0.05391	 6.62712e+07	 6.64965e+07	 
0.05401	 6.62331e+07	 6.64576e+07	 
0.05411	 6.61973e+07	 6.64207e+07	 
0.05421	 6.61637e+07	 6.6386e+07	 
0.05431	 6.61323e+07	 6.63533e+07	 
0.05441	 6.61031e+07	 6.63228e+07	 
0.05451	 6.6076e+07	 6.62943e+07	 
0.05461	 6.6051e+07	 6.62679e+07	 
0.05471	 6.60282e+07	 6.62436e+07	 
0.05481	 6.60075e+07	 6.62213e+07	 
0.05491	 6.59888e+07	 6.62011e+07	 
0.05501	 6.59722e+07	 6.61829e+07	 
0.05511	 6.59576e+07	 6.61668e+07	 
0.05521	 6.59451e+07	 6.61526e+07	 
0.05531	 6.59346e+07	 6.61405e+07	 
0.05541	 6.5926e+07	 6.61304e+07	 
0.05551	 6.59194e+07	 6.61223e+07	 
0.05561	 6.59148e+07	 6.61161e+07	 
0.05571	 6.59121e+07	 6.61119e+07	 
0.05581	 6.59113e+07	 6.61097e+07	 
0.05591	 6.59125e+07	 6.61094e+07	 
0.05601	 6.59155e+07	 6.6111e+07	 
0.05611	 6.59204e+07	 6.61146e+07	 
0.05621	 6.59272e+07	 6.61201e+07	 
0.05631	 6.59358e+07	 6.61275e+07	 
0.05641	 6.59464e+07	 6.61368e+07	 
0.05651	 6.59587e+07	 6.6148e+07	 
0.05661	 6.59729e+07	 6.6161e+07	 
0.05671	 6.59889e+07	 6.61759e+07	 
0.05681	 6.60066e+07	 6.61926e+07	 
0.05691	 6.60262e+07	 6.62111e+07	 
0.05701	 6.60476e+07	 6.62314e+07	 
0.05711	 6.60708e+07	 6.62535e+07	 
0.05721	 6.60957e+07	 6.62774e+07	 
0.05731	 6.61224e+07	 6.6303e+07	 
0.05741	 6.61508e+07	 6.63303e+07	 
0.05751	 6.61809e+07	 6.63593e+07	 
0.05761	 6.62128e+07	 6.639e+07	 
0.05771	 6.62464e+07	 6.64223e+07	 
0.05781	 6.62816e+07	 6.64562e+07	 
0.05791	 6.63186e+07	 6.64918e+07	 
0.05801	 6.63571e+07	 6.65289e+07	 
0.05811	 6.63973e+07	 6.65675e+07	 
0.05821	 6.64392e+07	 6.66077e+07	 
0.05831	 6.64826e+07	 6.66494e+07	 
