Time	 Node0px 	 Node0py 	 Node0pz 	 Node1px 	 Node1py 	 Node1pz 	 Seg1Te 	 
(s)	 (m) 	(m) 	(m) 	(m) 	(m) 	(m) 	(N) 	
0.0001	 5.21603e-23	 0	 -17.0095	 -3.24148e-27	 0	 -17.5001	 0	 
0.0002	 2.05759e-22	 0	 -17.0269	 -3.87866e-25	 0	 -17.5019	 0	 
0.0003	 4.53072e-22	 0	 -17.0516	 -4.14918e-24	 0	 -17.5104	 0	 
0.0004	 7.83533e-22	 0	 -17.0811	 -1.91607e-23	 0	 -17.5303	 0	 
0.0005	 1.18524e-21	 0	 -17.1137	 -5.62669e-23	 0	 -17.5645	 0	 
0.0006	 1.64541e-21	 0	 -17.1483	 -1.22946e-22	 0	 -17.612	 0	 
0.0007	 2.1504e-21	 0	 -17.1848	 -2.16055e-22	 0	 -17.6687	 0	 
0.0008	 2.68606e-21	 0	 -17.2228	 -3.18867e-22	 0	 -17.7283	 2.28846e+06	 
0.0009	 3.23902e-21	 0	 -17.2622	 -4.06165e-22	 0	 -17.7854	 1.15026e+07	 
0.001	 3.7896e-21	 0	 -17.3023	 -4.40502e-22	 0	 -17.8349	 1.65566e+07	 
0.0011	 4.31326e-21	 0	 -17.3423	 -3.93279e-22	 0	 -17.8741	 1.64455e+07	 
0.0012	 4.79092e-21	 0	 -17.3814	 -2.5935e-22	 0	 -17.9036	 1.16953e+07	 
0.0013	 5.21084e-21	 0	 -17.419	 -6.13289e-23	 0	 -17.9264	 4.16999e+06	 
0.0014	 5.56832e-21	 0	 -17.4548	 1.58287e-22	 0	 -17.9471	 0	 
0.0015	 5.86232e-21	 0	 -17.4888	 3.67156e-22	 0	 -17.9691	 0	 
0.0016	 6.09593e-21	 0	 -17.521	 5.39789e-22	 0	 -17.9956	 0	 
0.0017	 6.27395e-21	 0	 -17.5517	 6.64731e-22	 0	 -18.0282	 0	 
0.0018	 6.39953e-21	 0	 -17.5813	 7.49868e-22	 0	 -18.0662	 0	 
0.0019	 6.47458e-21	 0	 -17.6102	 8.16832e-22	 0	 -18.1068	 0	 
0.002	 6.50249e-21	 0	 -17.6386	 8.86929e-22	 0	 -18.1472	 4.09167e+06	 
0.00211	 6.48392e-21	 0	 -17.6697	 1.00184e-21	 0	 -18.1881	 9.2815e+06	 
0.00221	 6.42866e-21	 0	 -17.6977	 1.17042e-21	 0	 -18.2192	 1.09811e+07	 
0.00231	 6.34719e-21	 0	 -17.7256	 1.40639e-21	 0	 -18.2436	 9.34565e+06	 
0.00241	 6.25303e-21	 0	 -17.7531	 1.69496e-21	 0	 -18.2625	 5.06628e+06	 
0.00251	 6.16138e-21	 0	 -17.7799	 2.00866e-21	 0	 -18.2787	 0	 
0.00261	 6.08582e-21	 0	 -17.8059	 2.32385e-21	 0	 -18.2949	 0	 
0.00271	 6.036e-21	 0	 -17.8311	 2.63116e-21	 0	 -18.313	 0	 
0.00281	 6.01894e-21	 0	 -17.8555	 2.92157e-21	 0	 -18.335	 0	 
0.00291	 6.03792e-21	 0	 -17.8791	 3.19094e-21	 0	 -18.3615	 0	 
0.00301	 6.09256e-21	 0	 -17.9023	 3.44219e-21	 0	 -18.3916	 0	 
0.00311	 6.17954e-21	 0	 -17.9253	 3.68572e-21	 0	 -18.4231	 0	 
0.00321	 6.29395e-21	 0	 -17.9482	 3.93081e-21	 0	 -18.4542	 2.88466e+06	 
0.00331	 6.42983e-21	 0	 -17.9712	 4.1857e-21	 0	 -18.4833	 6.09265e+06	 
0.00341	 6.58054e-21	 0	 -17.9944	 4.45775e-21	 0	 -18.5086	 7.28266e+06	 
0.00351	 6.73933e-21	 0	 -18.0175	 4.74807e-21	 0	 -18.5294	 6.16961e+06	 
0.00361	 6.89923e-21	 0	 -18.0406	 5.05202e-21	 0	 -18.5466	 3.23784e+06	 
0.00371	 7.05294e-21	 0	 -18.0633	 5.36159e-21	 0	 -18.5621	 0	 
0.00381	 7.19336e-21	 0	 -18.0856	 5.67031e-21	 0	 -18.5775	 0	 
0.00391	 7.31509e-21	 0	 -18.1074	 5.96686e-21	 0	 -18.594	 0	 
0.00401	 7.41462e-21	 0	 -18.1287	 6.2287e-21	 0	 -18.6129	 0	 
0.00411	 7.48953e-21	 0	 -18.1496	 6.44432e-21	 0	 -18.6349	 0	 
0.00421	 7.53861e-21	 0	 -18.1701	 6.61884e-21	 0	 -18.6596	 0	 
0.00431	 7.56203e-21	 0	 -18.1905	 6.77207e-21	 0	 -18.6857	 0	 
0.00441	 7.56177e-21	 0	 -18.2109	 6.92387e-21	 0	 -18.7118	 321055	 
0.00451	 7.54226e-21	 0	 -18.2313	 7.07734e-21	 0	 -18.7373	 2.97644e+06	 
0.00461	 7.51006e-21	 0	 -18.2518	 7.23332e-21	 0	 -18.7609	 4.60793e+06	 
0.00471	 7.47195e-21	 0	 -18.2724	 7.39113e-21	 0	 -18.7815	 4.73345e+06	 
0.00481	 7.43393e-21	 0	 -18.2929	 7.54916e-21	 0	 -18.7994	 3.39179e+06	 
0.00491	 7.40066e-21	 0	 -18.3134	 7.70612e-21	 0	 -18.8153	 1.10054e+06	 
0.00501	 7.3755e-21	 0	 -18.3336	 7.86191e-21	 0	 -18.8307	 0	 
0.00511	 7.36169e-21	 0	 -18.3534	 8.01679e-21	 0	 -18.8461	 0	 
0.00521	 7.3623e-21	 0	 -18.373	 8.1636e-21	 0	 -18.8623	 0	 
0.00531	 7.37933e-21	 0	 -18.3923	 8.28789e-21	 0	 -18.88	 0	 
0.00541	 7.41341e-21	 0	 -18.4113	 8.38296e-21	 0	 -18.8997	 0	 
0.00551	 7.46377e-21	 0	 -18.4301	 8.45242e-21	 0	 -18.9212	 0	 
0.00561	 7.52838e-21	 0	 -18.4487	 8.50862e-21	 0	 -18.9436	 0	 
0.00571	 7.60417e-21	 0	 -18.4674	 8.56381e-21	 0	 -18.966	 0	 
0.00581	 7.68747e-21	 0	 -18.486	 8.61954e-21	 0	 -18.9882	 1.03456e+06	 
0.00591	 7.77501e-21	 0	 -18.5047	 8.67457e-21	 0	 -19.0097	 2.51075e+06	 
0.00601	 7.86358e-21	 0	 -18.5234	 8.7272e-21	 0	 -19.0296	 3.1512e+06	 
0.00611	 7.94923e-21	 0	 -18.5421	 8.77658e-21	 0	 -19.0475	 2.78908e+06	 
0.00621	 8.02739e-21	 0	 -18.5608	 8.82289e-21	 0	 -19.0638	 1.59612e+06	 
0.00631	 8.09326e-21	 0	 -18.5794	 8.86717e-21	 0	 -19.0792	 7216.37	 
0.00641	 8.14281e-21	 0	 -18.5977	 8.9106e-21	 0	 -19.0946	 0	 
0.00651	 8.1741e-21	 0	 -18.6159	 8.95347e-21	 0	 -19.1101	 0	 
0.00661	 8.18667e-21	 0	 -18.6339	 8.99337e-21	 0	 -19.1257	 0	 
0.00671	 8.18144e-21	 0	 -18.6517	 9.01986e-21	 0	 -19.1421	 0	 
0.00681	 8.16048e-21	 0	 -18.6693	 9.02574e-21	 0	 -19.1598	 0	 
0.00691	 8.12682e-21	 0	 -18.6867	 9.01146e-21	 0	 -19.1785	 0	 
0.00701	 8.08432e-21	 0	 -18.7041	 8.98449e-21	 0	 -19.198	 0	 
0.00711	 8.03742e-21	 0	 -18.7214	 8.955e-21	 0	 -19.2176	 0	 
0.00721	 7.99099e-21	 0	 -18.7387	 8.92593e-21	 0	 -19.2371	 0	 
0.00731	 7.94992e-21	 0	 -18.756	 8.89726e-21	 0	 -19.2566	 250421	 
0.00741	 7.9191e-21	 0	 -18.7732	 8.86855e-21	 0	 -19.2758	 1.26727e+06	 
0.00751	 7.90325e-21	 0	 -18.7905	 8.83861e-21	 0	 -19.2941	 1.8653e+06	 
0.00761	 7.90584e-21	 0	 -18.8077	 8.80664e-21	 0	 -19.3113	 1.86825e+06	 
0.00771	 7.92858e-21	 0	 -18.8249	 8.77256e-21	 0	 -19.3274	 1.30565e+06	 
0.00781	 7.97144e-21	 0	 -18.8421	 8.7369e-21	 0	 -19.3428	 391465	 
0.00791	 8.03284e-21	 0	 -18.8591	 8.70053e-21	 0	 -19.3579	 0	 
0.00801	 8.11046e-21	 0	 -18.876	 8.66386e-21	 0	 -19.3731	 0	 
0.00811	 8.20123e-21	 0	 -18.8928	 8.6269e-21	 0	 -19.3884	 0	 
0.00821	 8.30122e-21	 0	 -18.9095	 8.58969e-21	 0	 -19.4036	 0	 
0.00831	 8.40589e-21	 0	 -18.926	 8.55115e-21	 0	 -19.419	 0	 
0.00841	 8.51041e-21	 0	 -18.9425	 8.50671e-21	 0	 -19.4348	 0	 
0.00851	 8.60991e-21	 0	 -18.9588	 8.45322e-21	 0	 -19.4512	 0	 
0.00861	 8.69969e-21	 0	 -18.9751	 8.39092e-21	 0	 -19.4681	 0	 
0.00871	 8.77552e-21	 0	 -18.9912	 8.32326e-21	 0	 -19.4854	 0	 
0.00881	 8.83393e-21	 0	 -19.0074	 8.25473e-21	 0	 -19.5027	 0	 
0.00891	 8.87253e-21	 0	 -19.0235	 8.18645e-21	 0	 -19.52	 0	 
0.00901	 8.89009e-21	 0	 -19.0396	 8.11841e-21	 0	 -19.5373	 0	 
0.00911	 8.88653e-21	 0	 -19.0556	 8.05062e-21	 0	 -19.5545	 0	 
0.00921	 8.863e-21	 0	 -19.0716	 7.98308e-21	 0	 -19.5717	 17510.1	 
0.00931	 8.82178e-21	 0	 -19.0876	 7.91593e-21	 0	 -19.5888	 612113	 
0.00941	 8.7663e-21	 0	 -19.1035	 7.84968e-21	 0	 -19.6055	 1.01242e+06	 
0.00951	 8.70068e-21	 0	 -19.1194	 7.78466e-21	 0	 -19.6215	 1.09518e+06	 
0.00961	 8.6294e-21	 0	 -19.1353	 7.72081e-21	 0	 -19.6369	 848969	 
0.00971	 8.55707e-21	 0	 -19.1512	 7.65773e-21	 0	 -19.6518	 371588	 
0.00981	 8.48819e-21	 0	 -19.1669	 7.59486e-21	 0	 -19.6665	 0	 
0.00991	 8.42703e-21	 0	 -19.1826	 7.53183e-21	 0	 -19.6813	 0	 
0.01001	 8.37746e-21	 0	 -19.1982	 7.46865e-21	 0	 -19.696	 0	 
0.01011	 8.34264e-21	 0	 -19.2137	 7.40533e-21	 0	 -19.7108	 0	 
0.01021	 8.32482e-21	 0	 -19.2291	 7.34189e-21	 0	 -19.7256	 0	 
0.01031	 8.32522e-21	 0	 -19.2445	 7.27835e-21	 0	 -19.7404	 0	 
0.01041	 8.34402e-21	 0	 -19.2599	 7.21471e-21	 0	 -19.7552	 0	 
0.01051	 8.38034e-21	 0	 -19.2751	 7.15099e-21	 0	 -19.77	 0	 
0.01061	 8.43232e-21	 0	 -19.2904	 7.0872e-21	 0	 -19.7848	 0	 
0.01071	 8.49722e-21	 0	 -19.3055	 7.02335e-21	 0	 -19.7997	 0	 
0.01081	 8.57164e-21	 0	 -19.3206	 6.95919e-21	 0	 -19.8146	 0	 
0.01091	 8.6517e-21	 0	 -19.3357	 6.89398e-21	 0	 -19.8295	 0	 
0.01101	 8.73319e-21	 0	 -19.3507	 6.82735e-21	 0	 -19.8446	 0	 
0.01111	 8.81178e-21	 0	 -19.3657	 6.75959e-21	 0	 -19.8598	 0	 
0.01121	 8.88322e-21	 0	 -19.3806	 6.69145e-21	 0	 -19.875	 0	 
0.01131	 8.94345e-21	 0	 -19.3955	 6.62337e-21	 0	 -19.8902	 0	 
0.01141	 8.98873e-21	 0	 -19.4104	 6.55535e-21	 0	 -19.9054	 0	 
0.01151	 9.01553e-21	 0	 -19.4252	 6.4874e-21	 0	 -19.9206	 0	 
0.01161	 9.02041e-21	 0	 -19.44	 6.41954e-21	 0	 -19.9358	 0	 
0.01171	 8.99968e-21	 0	 -19.4547	 6.35176e-21	 0	 -19.9509	 0	 
0.01181	 8.94896e-21	 0	 -19.4694	 6.28408e-21	 0	 -19.9661	 0	 
0.01191	 8.86242e-21	 0	 -19.4841	 6.21649e-21	 0	 -19.9812	 0	 
0.01201	 8.73176e-21	 0	 -19.4987	 6.14901e-21	 0	 -19.9964	 0	 
0.01211	 8.54483e-21	 0	 -19.5132	 6.08163e-21	 0	 -20.0115	 0	 
0.01221	 8.28369e-21	 0	 -19.5278	 6.01435e-21	 0	 -20.0266	 0	 
0.01231	 7.92209e-21	 0	 -19.5422	 5.94718e-21	 0	 -20.0417	 0	 
0.01241	 7.42201e-21	 0	 -19.5567	 5.8801e-21	 0	 -20.0568	 25571.1	 
0.01251	 6.72911e-21	 0	 -19.5711	 5.81324e-21	 0	 -20.0718	 336822	 
0.01261	 5.76647e-21	 0	 -19.5855	 5.74679e-21	 0	 -20.0866	 547278	 
0.01271	 4.42635e-21	 0	 -19.5999	 5.68032e-21	 0	 -20.101	 591791	 
0.01281	 2.55905e-21	 0	 -19.6142	 5.61295e-21	 0	 -20.1151	 463775	 
0.01291	 -4.17021e-23	 0	 -19.6285	 5.54393e-21	 0	 -20.1289	 214043	 
0.01301	 -3.65825e-21	 0	 -19.6428	 5.47372e-21	 0	 -20.1426	 0	 
0.01311	 -8.67457e-21	 0	 -19.657	 5.40345e-21	 0	 -20.1563	 0	 
0.01321	 -1.56106e-20	 0	 -19.6711	 5.33333e-21	 0	 -20.17	 0	 
0.01331	 -2.51682e-20	 0	 -19.6852	 5.26339e-21	 0	 -20.1838	 0	 
0.01341	 -3.82911e-20	 0	 -19.6992	 5.19369e-21	 0	 -20.1975	 0	 
0.01351	 -5.62431e-20	 0	 -19.7132	 5.1243e-21	 0	 -20.2113	 0	 
0.01361	 -8.07109e-20	 0	 -19.7272	 5.05527e-21	 0	 -20.225	 0	 
0.01371	 -1.13937e-19	 0	 -19.7411	 4.98665e-21	 0	 -20.2388	 0	 
0.01381	 -1.58891e-19	 0	 -19.755	 4.91845e-21	 0	 -20.2525	 0	 
0.01391	 -2.19494e-19	 0	 -19.7688	 4.85065e-21	 0	 -20.2663	 0	 
0.01401	 -3.00903e-19	 0	 -19.7826	 4.78317e-21	 0	 -20.2801	 0	 
0.01411	 -4.09874e-19	 0	 -19.7964	 4.71579e-21	 0	 -20.2938	 0	 
0.01421	 -5.55234e-19	 0	 -19.8101	 4.64813e-21	 0	 -20.3076	 0	 
0.01431	 -7.48469e-19	 0	 -19.8238	 4.57955e-21	 0	 -20.3214	 0	 
0.01441	 -1.00447e-18	 0	 -19.8375	 4.50901e-21	 0	 -20.3351	 0	 
0.01451	 -1.3425e-18	 0	 -19.8511	 4.43492e-21	 0	 -20.3489	 0	 
0.01461	 -1.78733e-18	 0	 -19.8646	 4.35488e-21	 0	 -20.3626	 0	 
0.01471	 -2.3708e-18	 0	 -19.8782	 4.26535e-21	 0	 -20.3764	 0	 
0.01481	 -3.13361e-18	 0	 -19.8917	 4.16122e-21	 0	 -20.3901	 0	 
0.01491	 -4.12763e-18	 0	 -19.9051	 4.0352e-21	 0	 -20.4039	 0	 
0.01501	 -5.41876e-18	 0	 -19.9185	 3.877e-21	 0	 -20.4176	 0	 
0.01511	 -7.09043e-18	 0	 -19.9319	 3.67228e-21	 0	 -20.4313	 0	 
0.01521	 -9.24785e-18	 0	 -19.9453	 3.40125e-21	 0	 -20.445	 0	 
0.01531	 -1.20233e-17	 0	 -19.9586	 3.00866e-21	 0	 -20.4587	 71800.4	 
0.01541	 -1.55823e-17	 0	 -19.9718	 1.0455e-21	 0	 -20.4724	 263814	 
0.01551	 -2.01313e-17	 0	 -19.9851	 -6.35988e-21	 0	 -20.4858	 382710	 
0.01561	 -2.59278e-17	 0	 -19.9983	 -2.33959e-20	 0	 -20.499	 392736	 
0.01571	 -3.32912e-17	 0	 -20.0115	 -5.26867e-20	 0	 -20.512	 296078	 
0.01581	 -4.26167e-17	 0	 -20.0246	 -9.33261e-20	 0	 -20.5249	 130004	 
0.01591	 -5.43902e-17	 0	 -20.0377	 -1.39686e-19	 0	 -20.5376	 0	 
0.01601	 -6.92064e-17	 0	 -20.0508	 -1.8611e-19	 0	 -20.5504	 0	 
0.01611	 -8.77896e-17	 0	 -20.0638	 -2.32085e-19	 0	 -20.5631	 0	 
0.01621	 -1.11021e-16	 0	 -20.0767	 -2.77612e-19	 0	 -20.5759	 0	 
0.01631	 -1.39967e-16	 0	 -20.0896	 -3.22712e-19	 0	 -20.5887	 0	 
0.01641	 -1.75917e-16	 0	 -20.1025	 -3.67442e-19	 0	 -20.6014	 0	 
0.01651	 -2.20417e-16	 0	 -20.1153	 -4.119e-19	 0	 -20.6142	 0	 
0.01661	 -2.75315e-16	 0	 -20.128	 -4.56248e-19	 0	 -20.627	 0	 
0.01671	 -3.42812e-16	 0	 -20.1408	 -5.00734e-19	 0	 -20.6398	 0	 
0.01681	 -4.25513e-16	 0	 -20.1535	 -5.45718e-19	 0	 -20.6525	 0	 
0.01691	 -5.26483e-16	 0	 -20.1661	 -5.91707e-19	 0	 -20.6653	 0	 
0.01701	 -6.49312e-16	 0	 -20.1788	 -6.39399e-19	 0	 -20.6781	 0	 
0.01711	 -7.98173e-16	 0	 -20.1913	 -6.89738e-19	 0	 -20.6908	 0	 
0.01721	 -9.77887e-16	 0	 -20.2039	 -7.43971e-19	 0	 -20.7036	 0	 
0.01731	 -1.19398e-15	 0	 -20.2164	 -8.03727e-19	 0	 -20.7163	 0	 
0.01741	 -1.45272e-15	 0	 -20.2288	 -8.96995e-19	 0	 -20.7291	 116004	 
0.0175	 -1.72785e-15	 0	 -20.24	 -1.17411e-18	 0	 -20.7405	 223044	 
0.0176	 -2.08767e-15	 0	 -20.2524	 -1.96156e-18	 0	 -20.753	 285757	 
0.0177	 -2.51273e-15	 0	 -20.2648	 -3.48516e-18	 0	 -20.7653	 272642	 
0.0178	 -3.0123e-15	 0	 -20.2772	 -5.82851e-18	 0	 -20.7775	 191900	 
0.0179	 -3.59626e-15	 0	 -20.2895	 -8.83713e-18	 0	 -20.7896	 73589.1	 
0.018	 -4.27478e-15	 0	 -20.3017	 -1.21233e-17	 0	 -20.8016	 0	 
0.0181	 -5.05795e-15	 0	 -20.3139	 -1.54061e-17	 0	 -20.8137	 0	 
0.0182	 -5.9552e-15	 0	 -20.3261	 -1.86723e-17	 0	 -20.8257	 0	 
0.0183	 -6.97463e-15	 0	 -20.3382	 -2.19254e-17	 0	 -20.8378	 0	 
0.0184	 -8.12196e-15	 0	 -20.3503	 -2.51701e-17	 0	 -20.8498	 0	 
0.0185	 -9.39913e-15	 0	 -20.3624	 -2.84123e-17	 0	 -20.8619	 0	 
0.0186	 -1.08025e-14	 0	 -20.3744	 -3.16598e-17	 0	 -20.8739	 0	 
0.0187	 -1.23204e-14	 0	 -20.3863	 -3.49217e-17	 0	 -20.886	 0	 
0.0188	 -1.39299e-14	 0	 -20.3983	 -3.82089e-17	 0	 -20.898	 0	 
0.0189	 -1.5593e-14	 0	 -20.4102	 -4.1534e-17	 0	 -20.9101	 0	 
0.019	 -1.72515e-14	 0	 -20.422	 -4.49341e-17	 0	 -20.9221	 35924.5	 
0.0191	 -1.88199e-14	 0	 -20.4338	 -4.9369e-17	 0	 -20.9341	 130965	 
0.0192	 -2.01779e-14	 0	 -20.4456	 -5.69943e-17	 0	 -20.946	 197849	 
0.0193	 -2.116e-14	 0	 -20.4574	 -6.95741e-17	 0	 -20.9578	 215776	 
0.0194	 -2.15433e-14	 0	 -20.4691	 -8.76888e-17	 0	 -20.9695	 181215	 
0.0195	 -2.10322e-14	 0	 -20.4808	 -1.10449e-16	 0	 -20.981	 108108	 
0.0196	 -1.92391e-14	 0	 -20.4925	 -1.35866e-16	 0	 -20.9925	 22300.9	 
0.0197	 -1.5661e-14	 0	 -20.5041	 -1.61879e-16	 0	 -21.004	 0	 
0.0198	 -9.65136e-15	 0	 -20.5157	 -1.87892e-16	 0	 -21.0155	 0	 
0.0199	 -3.85384e-16	 0	 -20.5272	 -2.1392e-16	 0	 -21.027	 0	 
0.02	 1.31811e-14	 0	 -20.5387	 -2.39965e-16	 0	 -21.0385	 0	 
0.0201	 3.23616e-14	 0	 -20.5502	 -2.66008e-16	 0	 -21.05	 0	 
0.0202	 5.87986e-14	 0	 -20.5616	 -2.91999e-16	 0	 -21.0614	 0	 
0.0203	 9.45347e-14	 0	 -20.5731	 -3.1784e-16	 0	 -21.0729	 0	 
0.0204	 1.42098e-13	 0	 -20.5844	 -3.4337e-16	 0	 -21.0844	 0	 
0.0205	 2.04602e-13	 0	 -20.5958	 -3.67147e-16	 0	 -21.0959	 49221.8	 
0.0206	 2.85864e-13	 0	 -20.6071	 -3.75718e-16	 0	 -21.1073	 109977	 
0.0207	 3.90549e-13	 0	 -20.6184	 -3.42818e-16	 0	 -21.1187	 146515	 
0.0208	 5.24333e-13	 0	 -20.6297	 -2.38155e-16	 0	 -21.13	 147811	 
0.0209	 6.94104e-13	 0	 -20.641	 -3.96551e-17	 0	 -21.1412	 115090	 
0.021	 9.0818e-13	 0	 -20.6522	 2.52052e-16	 0	 -21.1523	 60733.6	 
0.0211	 1.17658e-12	 0	 -20.6634	 6.0384e-16	 0	 -21.1634	 3585.24	 
0.0212	 1.51131e-12	 0	 -20.6746	 9.64886e-16	 0	 -21.1745	 0	 
0.0213	 1.92673e-12	 0	 -20.6857	 1.32328e-15	 0	 -21.1856	 0	 
0.0214	 2.43995e-12	 0	 -20.6968	 1.67989e-15	 0	 -21.1967	 0	 
0.0215	 3.07135e-12	 0	 -20.7079	 2.03604e-15	 0	 -21.2078	 0	 
0.0216	 3.84507e-12	 0	 -20.719	 2.3937e-15	 0	 -21.2188	 0	 
0.0217	 4.78966e-12	 0	 -20.73	 2.75569e-15	 0	 -21.2299	 0	 
0.0218	 5.9388e-12	 0	 -20.741	 3.12609e-15	 0	 -21.241	 5935.72	 
0.0219	 7.3321e-12	 0	 -20.752	 3.61145e-15	 0	 -21.2521	 53151.8	 
0.022	 9.01597e-12	 0	 -20.763	 4.62998e-15	 0	 -21.2631	 93313.6	 
0.0221	 1.10448e-11	 0	 -20.7739	 6.72482e-15	 0	 -21.2741	 113475	 
0.0222	 1.3482e-11	 0	 -20.7848	 1.03701e-14	 0	 -21.285	 108007	 
0.0223	 1.64018e-11	 0	 -20.7957	 1.57698e-14	 0	 -21.2959	 80046.7	 
0.0224	 1.989e-11	 0	 -20.8066	 2.27051e-14	 0	 -21.3067	 39972.9	 
0.0225	 2.40465e-11	 0	 -20.8175	 3.05202e-14	 0	 -21.3175	 1582.21	 
0.0226	 2.89864e-11	 0	 -20.8283	 3.84597e-14	 0	 -21.3282	 0	 
0.0227	 3.48426e-11	 0	 -20.8391	 4.63759e-14	 0	 -21.339	 0	 
0.0228	 4.17677e-11	 0	 -20.8499	 5.42862e-14	 0	 -21.3498	 0	 
0.0229	 4.99374e-11	 0	 -20.8606	 6.22135e-14	 0	 -21.3606	 0	 
0.023	 5.95526e-11	 0	 -20.8713	 7.0194e-14	 0	 -21.3714	 6500.81	 
0.0231	 7.08431e-11	 0	 -20.882	 7.90972e-14	 0	 -21.3821	 40699.1	 
0.0232	 8.40709e-11	 0	 -20.8927	 9.19245e-14	 0	 -21.3929	 71963.6	 
0.0233	 9.95342e-11	 0	 -20.9034	 1.125e-13	 0	 -21.4036	 90117.4	 
0.0234	 1.17572e-10	 0	 -20.914	 1.4422e-13	 0	 -21.4142	 89869.2	 
0.0235	 1.38569e-10	 0	 -20.9247	 1.88776e-13	 0	 -21.4248	 72284.2	 
0.0236	 1.62962e-10	 0	 -20.9352	 2.45238e-13	 0	 -21.4353	 44078.7	 
0.0237	 1.91241e-10	 0	 -20.9458	 3.1e-13	 0	 -21.4458	 15093.1	 
0.0238	 2.2396e-10	 0	 -20.9564	 3.77926e-13	 0	 -21.4564	 0	 
0.0239	 2.61741e-10	 0	 -20.9669	 4.45929e-13	 0	 -21.4669	 0	 
0.024	 3.05278e-10	 0	 -20.9774	 5.13935e-13	 0	 -21.4774	 0	 
0.0241	 3.55352e-10	 0	 -20.9879	 5.82381e-13	 0	 -21.4879	 10991.4	 
0.0242	 4.12829e-10	 0	 -20.9983	 6.57113e-13	 0	 -21.4984	 35850.8	 
0.0243	 4.78677e-10	 0	 -21.0087	 7.51677e-13	 0	 -21.5089	 59495.1	 
0.0244	 5.53971e-10	 0	 -21.0192	 8.82625e-13	 0	 -21.5193	 74174	 
0.0245	 6.39904e-10	 0	 -21.0295	 1.06471e-12	 0	 -21.5297	 75521.6	 
0.0246	 7.37801e-10	 0	 -21.0399	 1.30581e-12	 0	 -21.54	 63806.4	 
0.0247	 8.49125e-10	 0	 -21.0503	 1.60341e-12	 0	 -21.5503	 43584.1	 
0.0248	 9.75491e-10	 0	 -21.0606	 1.94471e-12	 0	 -21.5606	 21959.4	 
0.0249	 1.11867e-09	 0	 -21.0709	 2.31092e-12	 0	 -21.5709	 6105.06	 
0.025	 1.28061e-09	 0	 -21.0812	 2.68539e-12	 0	 -21.5812	 898.438	 
0.0251	 1.46342e-09	 0	 -21.0914	 3.06307e-12	 0	 -21.5914	 7445.12	 
0.0252	 1.66941e-09	 0	 -21.1016	 3.45794e-12	 0	 -21.6017	 22928.2	 
0.0253	 1.90113e-09	 0	 -21.1118	 3.90501e-12	 0	 -21.6119	 41757.8	 
0.0254	 2.16131e-09	 0	 -21.122	 4.45493e-12	 0	 -21.6221	 57569.6	 
0.0255	 2.45293e-09	 0	 -21.1322	 5.16165e-12	 0	 -21.6323	 65367.6	 
0.0256	 2.77922e-09	 0	 -21.1423	 6.06673e-12	 0	 -21.6425	 63096.7	 
0.0257	 3.14364e-09	 0	 -21.1525	 7.18569e-12	 0	 -21.6526	 52158.1	 
0.0258	 3.54997e-09	 0	 -21.1626	 8.50241e-12	 0	 -21.6626	 36758.6	 
0.0259	 4.00226e-09	 0	 -21.1726	 9.97557e-12	 0	 -21.6727	 22370.2	 
0.026	 4.50481e-09	 0	 -21.1827	 1.15572e-11	 0	 -21.6827	 13858.6	 
0.0261	 5.06225e-09	 0	 -21.1927	 1.32184e-11	 0	 -21.6927	 13914.1	 
0.0262	 5.67947e-09	 0	 -21.2027	 1.49749e-11	 0	 -21.7028	 22284.9	 
0.0263	 6.36165e-09	 0	 -21.2127	 1.69005e-11	 0	 -21.7128	 36020.2	 
0.0264	 7.11422e-09	 0	 -21.2226	 1.91239e-11	 0	 -21.7227	 50587.9	 
0.0265	 7.94292e-09	 0	 -21.2326	 2.18047e-11	 0	 -21.7327	 61448.3	 
0.0266	 8.85378e-09	 0	 -21.2425	 2.50958e-11	 0	 -21.7426	 65542.9	 
0.0267	 9.85315e-09	 0	 -21.2523	 2.91038e-11	 0	 -21.7525	 62210.7	 
0.0268	 1.09476e-08	 0	 -21.2622	 3.38626e-11	 0	 -21.7623	 53264.7	 
0.0269	 1.2144e-08	 0	 -21.272	 3.93326e-11	 0	 -21.7721	 42248.6	 
0.027	 1.34493e-08	 0	 -21.2818	 4.54298e-11	 0	 -21.7819	 33166	 
0.0271	 1.48707e-08	 0	 -21.2915	 5.20796e-11	 0	 -21.7916	 29129.3	 
0.0272	 1.64155e-08	 0	 -21.3013	 5.92779e-11	 0	 -21.8013	 31379	 
0.0273	 1.80911e-08	 0	 -21.311	 6.71372e-11	 0	 -21.811	 38974.2	 
0.0274	 1.99048e-08	 0	 -21.3206	 7.58995e-11	 0	 -21.8207	 49221.4	 
0.0275	 2.18639e-08	 0	 -21.3303	 8.59038e-11	 0	 -21.8304	 58656.8	 
0.0276	 2.39757e-08	 0	 -21.3399	 9.75157e-11	 0	 -21.84	 64229.8	 
0.0277	 2.62468e-08	 0	 -21.3495	 1.11039e-10	 0	 -21.8496	 64285.5	 
0.0278	 2.86839e-08	 0	 -21.359	 1.2664e-10	 0	 -21.8591	 59033.9	 
0.0279	 3.12928e-08	 0	 -21.3685	 1.44315e-10	 0	 -21.8686	 50380.5	 
0.028	 3.40792e-08	 0	 -21.378	 1.63918e-10	 0	 -21.8781	 41207.8	 
0.0281	 3.70475e-08	 0	 -21.3875	 1.85246e-10	 0	 -21.8875	 34376.3	 
0.0282	 4.02015e-08	 0	 -21.3969	 2.08156e-10	 0	 -21.897	 31789	 
0.0283	 4.35435e-08	 0	 -21.4063	 2.32674e-10	 0	 -21.9064	 33822.6	 
0.0284	 4.70745e-08	 0	 -21.4157	 2.59058e-10	 0	 -21.9158	 39294.5	 
0.0285	 5.07936e-08	 0	 -21.425	 2.8778e-10	 0	 -21.9251	 45944.3	 
0.0286	 5.46982e-08	 0	 -21.4343	 3.1943e-10	 0	 -21.9345	 51244.2	 
0.0287	 5.87834e-08	 0	 -21.4436	 3.54565e-10	 0	 -21.9437	 53251.9	 
0.0288	 6.30418e-08	 0	 -21.4529	 3.93564e-10	 0	 -21.953	 51223.2	 
0.0289	 6.74632e-08	 -2.87091e-28	 -21.4622	 4.36527e-10	 -9.4687e-34	 -21.9622	 45796.6	 
0.029	 7.20339e-08	 -4.78611e-27	 -21.4714	 4.83269e-10	 -2.13726e-32	 -21.9715	 38710.7	 
0.0291	 7.67371e-08	 -1.53894e-26	 -21.4806	 5.33427e-10	 -2.81601e-31	 -21.9806	 32175.8	 
0.0292	 8.15513e-08	 -3.44478e-26	 -21.4897	 5.86626e-10	 -1.16593e-30	 -21.9898	 28124.7	 
